Time(s),Latitude(deg),Longitude(deg),Damped Inst North(m/s),Damped Inst East(m/s)
0.000000,51.509254,-0.161045,0.000000,-0.000000
0.500000,51.509254,-0.161045,0.033957,-0.001584
1.000000,51.509255,-0.161045,0.213959,-0.005211
1.500000,51.509256,-0.161045,0.402698,0.009276
2.000000,51.509259,-0.161045,0.644578,-0.007640
2.500000,51.509262,-0.161045,0.823740,0.004902
3.000000,51.509267,-0.161045,1.140334,0.009055
3.500000,51.509272,-0.161045,1.165066,0.018138
4.000000,51.509278,-0.161045,1.375351,-0.055875
4.500000,51.509283,-0.161045,1.185858,-0.033050
5.000000,51.509289,-0.161045,1.235354,0.009965
5.500000,51.509294,-0.161045,1.328171,0.000609
6.000000,51.509300,-0.161045,1.288167,-0.022528
6.500000,51.509306,-0.161045,1.323433,0.034865
7.000000,51.509312,-0.161045,1.129312,0.012640
7.500000,51.509317,-0.161045,1.351084,0.003866
8.000000,51.509323,-0.161045,1.220522,-0.020566
8.500000,51.509329,-0.161046,1.293995,-0.081177
9.000000,51.509334,-0.161046,1.208988,-0.026261
9.500000,51.509340,-0.161046,1.312498,0.118616
10.000000,51.509346,-0.161045,1.213305,0.111177
10.500000,51.509351,-0.161044,1.273538,0.010787
11.000000,51.509357,-0.161044,1.156352,0.044858
11.500000,51.509362,-0.161044,1.340681,-0.005477
12.000000,51.509368,-0.161044,1.178017,-0.001355
12.500000,51.509374,-0.161044,1.368357,0.005629
13.000000,51.509379,-0.161044,1.183885,-0.019034
13.500000,51.509385,-0.161044,1.329443,-0.045370
14.000000,51.509391,-0.161045,1.125464,-0.029529
14.500000,51.509396,-0.161045,1.302516,0.018000
15.000000,51.509401,-0.161045,1.109497,-0.042779
15.500000,51.509407,-0.161045,1.325654,-0.120373
16.000000,51.509413,-0.161046,1.183204,-0.059025
16.500000,51.509418,-0.161046,1.304106,-0.010345
17.000000,51.509424,-0.161046,1.152167,-0.025551
17.500000,51.509429,-0.161047,1.325536,-0.059450
18.000000,51.509435,-0.161047,1.238136,-0.037560
18.500000,51.509441,-0.161047,1.351186,-0.022863
19.000000,51.509446,-0.161047,1.170205,-0.026441
19.500000,51.509452,-0.161047,1.329898,0.038908
20.000000,51.509458,-0.161047,1.201328,0.039324
20.500000,51.509463,-0.161047,1.156396,-0.017302
21.000000,51.509469,-0.161047,1.323695,-0.020801
21.500000,51.509474,-0.161047,1.212579,0.062714
22.000000,51.509480,-0.161047,1.171494,0.000597
22.500000,51.509485,-0.161047,1.210276,-0.067504
23.000000,51.509491,-0.161047,1.242432,0.035797
23.500000,51.509496,-0.161047,1.169606,0.027146
24.000000,51.509501,-0.161047,1.262266,-0.049021
24.500000,51.509507,-0.161047,1.214619,-0.016716
25.000000,51.509513,-0.161047,1.300012,0.036201
25.500000,51.509518,-0.161047,1.265696,-0.010771
26.000000,51.509524,-0.161047,1.264470,-0.004843
26.500000,51.509530,-0.161047,1.169283,-0.072709
27.000000,51.509535,-0.161048,1.337613,-0.045176
27.500000,51.509541,-0.161048,1.220401,0.079190
28.000000,51.509547,-0.161047,1.319554,0.001143
28.500000,51.509552,-0.161047,1.243711,-0.002087
29.000000,51.509558,-0.161048,1.302424,-0.068537
29.500000,51.509564,-0.161048,1.217884,-0.077468
30.000000,51.509569,-0.161049,1.286986,-0.048798
30.500000,51.509575,-0.161049,1.332903,-0.044879
31.000000,51.509581,-0.161049,1.233861,0.041164
31.500000,51.509587,-0.161049,1.252360,-0.007520
32.000000,51.509592,-0.161049,1.246594,0.057688
32.500000,51.509598,-0.161048,1.173997,-0.003533
33.000000,51.509602,-0.161049,0.816181,-0.076652
33.500000,51.509605,-0.161049,0.718464,-0.016843
34.000000,51.509608,-0.161049,0.346765,0.005149
34.500000,51.509609,-0.161049,0.199155,0.062002
35.000000,51.509610,-0.161048,0.274299,0.127312
35.500000,51.509611,-0.161047,0.178801,0.188385
36.000000,51.509612,-0.161046,0.128169,0.203783
36.500000,51.509612,-0.161044,0.057056,0.242930
37.000000,51.509612,-0.161042,0.019695,0.316630
37.500000,51.509612,-0.161040,-0.063650,0.170562
38.000000,51.509612,-0.161038,-0.114081,0.290865
38.500000,51.509611,-0.161037,-0.152636,0.159603
39.000000,51.509610,-0.161036,-0.168488,0.148144
39.500000,51.509609,-0.161035,-0.239371,0.058894
40.000000,51.509608,-0.161035,-0.201031,0.006588
40.500000,51.509607,-0.161035,-0.377714,0.003489
41.000000,51.509605,-0.161035,-0.619450,0.013393
41.500000,51.509601,-0.161035,-0.786663,-0.061879
42.000000,51.509597,-0.161036,-1.092518,-0.086332
42.500000,51.509592,-0.161036,-1.237702,0.079007
43.000000,51.509586,-0.161035,-1.314528,0.066983
43.500000,51.509580,-0.161035,-1.219919,-0.042821
44.000000,51.509575,-0.161035,-1.286962,0.008768
44.500000,51.509569,-0.161035,-1.223563,-0.011287
45.000000,51.509564,-0.161035,-1.250200,0.026351
45.500000,51.509558,-0.161035,-1.223257,0.009443
46.000000,51.509552,-0.161035,-1.293590,-0.056482
46.500000,51.509547,-0.161035,-1.252812,0.027073
47.000000,51.509541,-0.161035,-1.220622,0.060761
47.500000,51.509536,-0.161034,-1.191852,0.049022
48.000000,51.509530,-0.161034,-1.272992,0.018407
48.500000,51.509524,-0.161034,-1.257856,-0.047893
49.000000,51.509519,-0.161035,-1.301909,-0.060660
49.500000,51.509513,-0.161035,-1.184201,0.088136
50.000000,51.509507,-0.161034,-1.299372,-0.039848
50.500000,51.509502,-0.161034,-1.186706,0.020943
51.000000,51.509496,-0.161034,-1.331749,0.129873
51.500000,51.509491,-0.161034,-1.163740,-0.016915
52.000000,51.509485,-0.161034,-1.189431,-0.060579
52.500000,51.509480,-0.161034,-1.220912,0.035625
53.000000,51.509474,-0.161034,-1.302187,-0.000301
53.500000,51.509469,-0.161034,-1.167685,-0.108748
54.000000,51.509463,-0.161035,-1.337958,-0.044114
54.500000,51.509457,-0.161035,-1.178840,-0.035111
55.000000,51.509452,-0.161035,-1.322912,0.066336
55.500000,51.509446,-0.161035,-1.222225,0.037894
56.000000,51.509440,-0.161034,-1.259750,0.037673
56.500000,51.509435,-0.161034,-1.300658,0.067394
57.000000,51.509429,-0.161034,-1.213482,0.014841
57.500000,51.509423,-0.161034,-1.343117,-0.016423
58.000000,51.509418,-0.161033,-1.185272,0.115771
58.500000,51.509412,-0.161032,-1.259991,0.112920
59.000000,51.509406,-0.161032,-1.274750,-0.016762
59.500000,51.509401,-0.161032,-1.332714,0.070040
60.000000,51.509395,-0.161032,-1.181586,-0.005803
60.500000,51.509389,-0.161032,-1.331691,-0.008666
61.000000,51.509383,-0.161031,-1.259183,0.072421
61.500000,51.509378,-0.161031,-1.199300,-0.016687
62.000000,51.509372,-0.161031,-1.310709,-0.019717
62.500000,51.509367,-0.161031,-1.241322,0.023511
63.000000,51.509361,-0.161032,-1.335459,-0.107779
63.500000,51.509355,-0.161032,-1.210123,-0.054085
64.000000,51.509349,-0.161033,-1.284985,-0.035088
64.500000,51.509344,-0.161033,-1.163793,-0.071099
65.000000,51.509338,-0.161033,-1.317669,-0.011339
65.500000,51.509333,-0.161033,-1.202488,0.007366
66.000000,51.509327,-0.161033,-1.283130,0.018171
66.500000,51.509322,-0.161033,-1.209644,0.013413
67.000000,51.509316,-0.161033,-1.286566,0.018447
67.500000,51.509310,-0.161033,-1.188276,0.065041
68.000000,51.509305,-0.161032,-1.341789,-0.002118
68.500000,51.509299,-0.161033,-1.134449,-0.030138
69.000000,51.509293,-0.161032,-1.363255,0.071452
69.500000,51.509288,-0.161032,-1.118022,-0.012036
70.000000,51.509282,-0.161032,-1.393189,-0.018039
70.500000,51.509277,-0.161032,-1.166347,0.034800
71.000000,51.509271,-0.161032,-1.281140,0.060863
71.500000,51.509265,-0.161032,-1.208304,-0.039382
72.000000,51.509261,-0.161032,-0.844179,0.010988
72.500000,51.509258,-0.161032,-0.656503,0.058791
73.000000,51.509255,-0.161031,-0.439982,0.005852
73.500000,51.509254,-0.161031,-0.208214,0.077874
74.000000,51.509253,-0.161030,-0.245780,0.121838
74.500000,51.509252,-0.161029,-0.105265,0.135926
75.000000,51.509252,-0.161028,-0.158785,0.214423
75.500000,51.509251,-0.161026,-0.072964,0.346484
76.000000,51.509251,-0.161024,0.011684,0.161106
76.500000,51.509251,-0.161022,0.048083,0.331253
77.000000,51.509252,-0.161021,0.141825,0.215053
77.500000,51.509252,-0.161019,0.152197,0.175717
78.000000,51.509253,-0.161018,0.267599,0.150152
78.500000,51.509254,-0.161017,0.266600,0.079634
79.000000,51.509255,-0.161017,0.205131,0.005525
79.500000,51.509257,-0.161017,0.391708,0.010413
80.000000,51.509259,-0.161017,0.558618,-0.007791
80.500000,51.509262,-0.161017,0.832621,-0.023568
81.000000,51.509267,-0.161017,1.074377,0.000285
81.500000,51.509272,-0.161017,1.245418,0.006013
82.000000,51.509278,-0.161017,1.295473,0.018485
82.500000,51.509283,-0.161017,1.192432,0.013487
83.000000,51.509289,-0.161017,1.330692,-0.072078
83.500000,51.509295,-0.161017,1.174246,-0.037128
84.000000,51.509300,-0.161017,1.268107,0.042112
84.500000,51.509306,-0.161017,1.321587,0.014680
85.000000,51.509312,-0.161017,1.284837,0.003683
85.500000,51.509318,-0.161017,1.293242,-0.019466
86.000000,51.509323,-0.161017,1.193901,-0.017757
86.500000,51.509329,-0.161017,1.245519,0.057428
87.000000,51.509334,-0.161017,1.224123,-0.058078
87.500000,51.509340,-0.161018,1.274074,-0.051808
88.000000,51.509345,-0.161018,1.257674,0.053553
88.500000,51.509351,-0.161017,1.260283,0.038326
89.000000,51.509357,-0.161017,1.199541,-0.010405
89.500000,51.509362,-0.161017,1.336101,-0.022196
90.000000,51.509368,-0.161017,1.189079,0.041751
90.500000,51.509374,-0.161017,1.342619,0.037223
91.000000,51.509379,-0.161017,1.226149,-0.045638
91.500000,51.509385,-0.161017,1.223086,-0.024267
92.000000,51.509390,-0.161017,1.165698,-0.039008
92.500000,51.509396,-0.161018,1.299345,-0.026887
93.000000,51.509402,-0.161018,1.206416,-0.019478
93.500000,51.509407,-0.161018,1.330961,-0.022346
94.000000,51.509413,-0.161018,1.241641,0.090551
94.500000,51.509419,-0.161017,1.286995,0.032776
95.000000,51.509424,-0.161017,1.249223,0.017513
95.500000,51.509430,-0.161017,1.300241,-0.041009
96.000000,51.509436,-0.161018,1.213447,-0.044503
96.500000,51.509441,-0.161018,1.300735,0.015954
97.000000,51.509447,-0.161017,1.271734,0.068607
97.500000,51.509453,-0.161017,1.240351,0.060583
98.000000,51.509458,-0.161016,1.213020,0.028737
98.500000,51.509464,-0.161016,1.215575,0.037588
99.000000,51.509470,-0.161016,1.332523,0.041299
99.500000,51.509475,-0.161016,1.208534,0.013287
100.000000,51.509481,-0.161016,1.337866,-0.043388
100.500000,51.509486,-0.161016,1.068821,0.007653
101.000000,51.509492,-0.161016,1.478739,0.004239
101.500000,51.509498,-0.161016,1.064125,0.016517
102.000000,51.509503,-0.161016,1.285966,0.039284
102.500000,51.509509,-0.161016,1.265495,-0.052030
103.000000,51.509515,-0.161016,1.271607,-0.000254
103.500000,51.509520,-0.161016,1.139797,-0.036689
104.000000,51.509526,-0.161016,1.325038,-0.066568
104.500000,51.509531,-0.161017,1.153268,-0.036653
105.000000,51.509537,-0.161017,1.325047,-0.030836
105.500000,51.509542,-0.161017,1.154311,-0.021682
106.000000,51.509548,-0.161018,1.290621,-0.043074
106.500000,51.509553,-0.161018,1.254951,-0.020935
107.000000,51.509559,-0.161018,1.245913,0.009041
107.500000,51.509565,-0.161018,1.276792,-0.036646
108.000000,51.509570,-0.161018,1.102044,-0.054614
108.500000,51.509576,-0.161019,1.392199,-0.080367
109.000000,51.509581,-0.161019,1.178624,-0.101962
109.500000,51.509587,-0.161020,1.365400,-0.011379
110.000000,51.509593,-0.161020,1.135190,-0.000206
110.500000,51.509598,-0.161020,1.262348,0.006138
111.000000,51.509603,-0.161020,0.866828,-0.028910
111.500000,51.509606,-0.161020,0.715923,-0.064483
112.000000,51.509609,-0.161020,0.363597,-0.012959
112.500000,51.509610,-0.161020,0.341595,0.062120
113.000000,51.509611,-0.161020,0.121534,0.095725
113.500000,51.509612,-0.161019,0.199088,0.156487
114.000000,51.509612,-0.161017,0.067248,0.196281
114.500000,51.509613,-0.161015,0.145458,0.378829
115.000000,51.509613,-0.161013,-0.041717,0.176387
115.500000,51.509613,-0.161012,-0.023738,0.286801
116.000000,51.509613,-0.161010,-0.123690,0.160920
116.500000,51.509612,-0.161009,-0.111765,0.159732
117.000000,51.509611,-0.161008,-0.293037,0.178106
117.500000,51.509610,-0.161007,-0.136113,0.022672
118.000000,51.509609,-0.161007,-0.378649,0.053699
118.500000,51.509607,-0.161007,-0.270422,-0.035632
119.000000,51.509605,-0.161007,-0.626288,0.047700
119.500000,51.509602,-0.161006,-0.868461,0.039641
120.000000,51.509597,-0.161006,-1.234180,0.056827
120.500000,51.509592,-0.161006,-1.167273,-0.009882
121.000000,51.509586,-0.161006,-1.350355,0.022003
121.500000,51.509580,-0.161006,-1.205041,-0.026075
122.000000,51.509575,-0.161006,-1.238764,0.008289
122.500000,51.509569,-0.161006,-1.223795,-0.005202
123.000000,51.509564,-0.161006,-1.292828,-0.050801
123.500000,51.509558,-0.161006,-1.270006,-0.004196
124.000000,51.509552,-0.161007,-1.225790,-0.050215
124.500000,51.509547,-0.161007,-1.273611,-0.042123
125.000000,51.509541,-0.161007,-1.267056,-0.012283
125.500000,51.509535,-0.161007,-1.261864,-0.071029
126.000000,51.509529,-0.161008,-1.291127,0.010711
126.500000,51.509524,-0.161007,-1.222682,0.130202
127.000000,51.509518,-0.161006,-1.287125,0.065119
127.500000,51.509513,-0.161006,-1.194622,0.071697
128.000000,51.509507,-0.161006,-1.293638,0.013867
128.500000,51.509501,-0.161005,-1.243926,0.010724
129.000000,51.509495,-0.161005,-1.312695,0.057390
129.500000,51.509490,-0.161005,-1.205080,-0.059877
130.000000,51.509484,-0.161006,-1.280415,-0.021114
130.500000,51.509479,-0.161006,-1.219979,-0.011962
131.000000,51.509473,-0.161006,-1.313489,-0.002168
131.500000,51.509467,-0.161006,-1.144542,-0.059078
132.000000,51.509462,-0.161006,-1.347036,-0.055964
132.500000,51.509456,-0.161007,-1.206577,-0.024626
133.000000,51.509450,-0.161007,-1.373591,-0.014244
133.500000,51.509445,-0.161007,-1.137933,-0.004717
134.000000,51.509439,-0.161007,-1.328278,0.011106
134.500000,51.509434,-0.161006,-1.158597,0.080623
135.000000,51.509428,-0.161006,-1.302972,0.014829
135.500000,51.509422,-0.161006,-1.203871,-0.045991
136.000000,51.509417,-0.161006,-1.264733,-0.006792
136.500000,51.509411,-0.161006,-1.162676,0.031806
137.000000,51.509406,-0.161006,-1.344492,-0.003828
137.500000,51.509400,-0.161006,-1.242651,0.023258
138.000000,51.509394,-0.161006,-1.263044,0.025335
138.500000,51.509389,-0.161006,-1.266255,0.003008
139.000000,51.509383,-0.161006,-1.255410,-0.003752
139.500000,51.509377,-0.161006,-1.228507,0.022285
140.000000,51.509372,-0.161006,-1.306904,0.029219
140.500000,51.509366,-0.161006,-1.166950,-0.049997
141.000000,51.509361,-0.161006,-1.306280,0.046013
141.500000,51.509355,-0.161005,-1.243197,0.040519
142.000000,51.509349,-0.161005,-1.184836,0.052156
142.500000,51.509344,-0.161005,-1.174714,0.043072
143.000000,51.509338,-0.161005,-1.327655,-0.031673
143.500000,51.509333,-0.161005,-1.116585,-0.069912
144.000000,51.509328,-0.161005,-1.272974,-0.035809
144.500000,51.509322,-0.161005,-1.275351,0.053030
145.000000,51.509316,-0.161005,-1.204873,0.051734
145.500000,51.509311,-0.161005,-1.314550,0.019013
146.000000,51.509305,-0.161005,-1.212507,-0.045391
146.500000,51.509299,-0.161005,-1.241205,-0.032299
147.000000,51.509294,-0.161005,-1.204834,-0.010902
147.500000,51.509288,-0.161005,-1.332362,-0.023587
148.000000,51.509283,-0.161006,-1.166561,-0.017306
148.500000,51.509277,-0.161006,-1.333617,0.019474
149.000000,51.509271,-0.161005,-1.165765,0.003869
149.500000,51.509266,-0.161005,-1.223893,-0.017343
150.000000,51.509261,-0.161006,-0.877206,0.006562
150.500000,51.509258,-0.161005,-0.626867,0.008577
151.000000,51.509256,-0.161005,-0.393982,0.012162
151.500000,51.509255,-0.161005,-0.267998,0.067513
152.000000,51.509253,-0.161004,-0.228387,0.116383
152.500000,51.509253,-0.161003,-0.179655,0.155402
153.000000,51.509252,-0.161002,-0.143667,0.193445
153.500000,51.509251,-0.161001,-0.028655,0.146094
154.000000,51.509251,-0.160999,-0.029224,0.282349
154.500000,51.509251,-0.160998,0.079748,0.201636
155.000000,51.509252,-0.160996,0.108788,0.257634
155.500000,51.509252,-0.160995,0.122260,0.079777
156.000000,51.509253,-0.160994,0.252783,0.212537
156.500000,51.509254,-0.160993,0.211606,0.032609
157.000000,51.509255,-0.160993,0.217990,0.024247
157.500000,51.509257,-0.160993,0.365691,-0.019749
158.000000,51.509259,-0.160993,0.576849,0.030265
158.500000,51.509262,-0.160993,0.930027,-0.038198
159.000000,51.509267,-0.160993,1.014234,-0.003466
159.500000,51.509272,-0.160993,1.321230,0.032500
160.000000,51.509278,-0.160993,1.208170,0.021486
160.500000,51.509284,-0.160993,1.345780,-0.049804
161.000000,51.509289,-0.160993,1.207120,-0.025849
161.500000,51.509295,-0.160993,1.228849,-0.006404
162.000000,51.509300,-0.160993,1.212499,0.036621
162.500000,51.509306,-0.160993,1.206990,0.037720
163.000000,51.509311,-0.160993,1.262998,-0.008770
163.500000,51.509317,-0.160992,1.308747,0.027129
164.000000,51.509323,-0.160992,1.251221,-0.004843
164.500000,51.509328,-0.160992,1.228955,0.081523
165.000000,51.509334,-0.160991,1.251440,0.083206
165.500000,51.509340,-0.160991,1.305351,0.058828
166.000000,51.509345,-0.160991,1.184247,0.025878
166.500000,51.509351,-0.160991,1.329887,0.006473
167.000000,51.509357,-0.160991,1.244906,-0.007451
167.500000,51.509363,-0.160990,1.312169,0.031632
168.000000,51.509368,-0.160990,1.272206,0.076564
168.500000,51.509374,-0.160990,1.249730,0.026481
169.000000,51.509380,-0.160990,1.258352,-0.005475
169.500000,51.509385,-0.160990,1.218343,0.015776
170.000000,51.509391,-0.160990,1.279351,-0.035012
170.500000,51.509396,-0.160990,1.185522,-0.050789
171.000000,51.509402,-0.160990,1.337207,0.001743
171.500000,51.509407,-0.160990,1.112449,-0.004892
172.000000,51.509413,-0.160990,1.303731,0.013720
172.500000,51.509418,-0.160990,1.143948,0.029070
173.000000,51.509424,-0.160990,1.315338,0.009844
173.500000,51.509430,-0.160990,1.202413,0.056966
174.000000,51.509435,-0.160989,1.230478,0.028777
174.500000,51.509441,-0.160989,1.272134,-0.009565
175.000000,51.509446,-0.160989,1.276882,-0.006517
175.500000,51.509452,-0.160989,1.231060,-0.008272
176.000000,51.509458,-0.160989,1.305729,0.016106
176.500000,51.509463,-0.160989,1.134464,-0.006763
177.000000,51.509469,-0.160989,1.372784,0.037966
177.500000,51.509475,-0.160989,1.197441,0.016230
178.000000,51.509481,-0.160989,1.403264,-0.078743
178.500000,51.509486,-0.160990,1.189758,-0.075192
179.000000,51.509492,-0.160990,1.290396,-0.028037
179.500000,51.509498,-0.160990,1.246940,-0.004104
180.000000,51.509503,-0.160990,1.285993,0.021637
180.500000,51.509509,-0.160990,1.173643,0.008447
181.000000,51.509514,-0.160990,1.328688,0.023535
181.500000,51.509520,-0.160990,1.228526,0.024377
182.000000,51.509526,-0.160990,1.358374,-0.001455
182.500000,51.509532,-0.160990,1.165525,0.013515
183.000000,51.509537,-0.160990,1.376790,-0.016080
183.500000,51.509543,-0.160990,1.235242,-0.081969
184.000000,51.509549,-0.160990,1.266508,-0.027000
184.500000,51.509554,-0.160990,1.238294,0.011497
185.000000,51.509560,-0.160990,1.232428,0.022365
185.500000,51.509566,-0.160990,1.252712,-0.035811
186.000000,51.509571,-0.160991,1.229722,-0.050657
186.500000,51.509577,-0.160991,1.212147,-0.030441
187.000000,51.509582,-0.160991,1.309087,-0.056208
187.500000,51.509588,-0.160992,1.156621,-0.021905
188.000000,51.509593,-0.160992,1.315082,0.008787
188.500000,51.509599,-0.160991,1.067361,0.051280
189.000000,51.509603,-0.160991,0.976689,0.039723
189.500000,51.509607,-0.160991,0.639893,0.049638
190.000000,51.509609,-0.160991,0.408533,0.024254
190.500000,51.509611,-0.160990,0.281888,0.075071
191.000000,51.509611,-0.160990,0.133857,0.091709
191.500000,51.509612,-0.160988,0.244053,0.191304
192.000000,51.509613,-0.160987,0.079043,0.199711
192.500000,51.509613,-0.160985,0.097754,0.281598
193.000000,51.509613,-0.160984,-0.033256,0.179021
193.500000,51.509613,-0.160982,-0.045837,0.317980
194.000000,51.509613,-0.160980,-0.094020,0.118152
194.500000,51.509612,-0.160979,-0.175836,0.272519
195.000000,51.509612,-0.160978,-0.153608,0.042618
195.500000,51.509611,-0.160977,-0.258456,0.143947
196.000000,51.509610,-0.160977,-0.232445,-0.018113
196.500000,51.509608,-0.160977,-0.456822,0.045782
197.000000,51.509605,-0.160977,-0.665555,-0.031911
197.500000,51.509602,-0.160977,-0.859163,-0.027784
198.000000,51.509597,-0.160977,-1.114740,-0.032303
198.500000,51.509592,-0.160977,-1.275864,0.035194
199.000000,51.509586,-0.160977,-1.194852,-0.061017
199.500000,51.509580,-0.160977,-1.387115,0.010728
200.000000,51.509575,-0.160977,-1.144570,0.018879
200.500000,51.509569,-0.160977,-1.306585,-0.014143
201.000000,51.509564,-0.160977,-1.234797,0.070956
