Time(s),Latitude(deg),Longitude(deg),Height(m),North(m/s),East(m/s),Down(m/s)
0.000000,-2.575949,-67.417551,995.509072,-0.106803,199.884558,0.148957
1.000000,-2.575950,-67.415754,995.363247,-0.106521,199.884562,0.142694
2.000000,-2.575951,-67.413956,995.223684,-0.106239,199.884567,0.136431
3.000000,-2.575952,-67.412159,995.090385,-0.105957,199.884571,0.130168
4.000000,-2.575953,-67.410362,994.963349,-0.105676,199.884575,0.123904
5.000000,-2.575954,-67.408565,994.842576,-0.105394,199.884579,0.117641
6.000000,-2.575955,-67.406768,994.728067,-0.105112,199.884583,0.111378
7.000000,-2.575956,-67.404971,994.619820,-0.104830,199.884587,0.105115
8.000000,-2.575956,-67.403174,994.517837,-0.104548,199.884590,0.098852
9.000000,-2.575957,-67.401377,994.422117,-0.104267,199.884593,0.092589
10.000000,-2.575958,-67.399579,994.332660,-0.103985,199.884596,0.086325
11.000000,-2.575959,-67.397782,994.249466,-0.103703,199.884599,0.080062
12.000000,-2.575960,-67.395985,994.172536,-0.103421,199.884601,0.073799
13.000000,-2.575961,-67.394188,994.101868,-0.103140,199.884604,0.067536
14.000000,-2.575962,-67.392391,994.037464,-0.102858,199.884606,0.061273
15.000000,-2.575963,-67.390594,993.979323,-0.102576,199.884608,0.055009
16.000000,-2.575964,-67.388797,993.927445,-0.102294,199.884610,0.048746
17.000000,-2.575965,-67.387000,993.881830,-0.102012,199.884611,0.042483
18.000000,-2.575966,-67.385203,993.842479,-0.101731,199.884613,0.036220
19.000000,-2.575967,-67.383405,993.809390,-0.101449,199.884614,0.029957
20.000000,-2.575968,-67.381608,993.782565,-0.101167,199.884615,0.023694
21.000000,-2.575969,-67.379811,993.762003,-0.100885,199.884616,0.017430
22.000000,-2.575969,-67.378014,993.747704,-0.100604,199.884616,0.011167
23.000000,-2.575970,-67.376217,993.739668,-0.100322,199.884616,0.004904
24.000000,-2.575971,-67.374420,993.737896,-0.100040,199.884617,-0.001359
25.000000,-2.575972,-67.372623,993.742386,-0.099758,199.884617,-0.007622
26.000000,-2.575973,-67.370826,993.753140,-0.099476,199.884616,-0.013885
27.000000,-2.575974,-67.369028,993.770157,-0.099195,199.884616,-0.020149
28.000000,-2.575975,-67.367231,993.793437,-0.098913,199.884616,-0.026412
29.000000,-2.575976,-67.365434,993.822981,-0.098631,199.884615,-0.032675
30.000000,-2.575977,-67.363637,993.858787,-0.098349,199.884614,-0.038938
31.000000,-2.575978,-67.361840,993.900857,-0.098068,199.884613,-0.045201
32.000000,-2.575978,-67.360043,993.949190,-0.097786,199.884611,-0.051464
33.000000,-2.575979,-67.358246,994.003786,-0.097504,199.884610,-0.057728
34.000000,-2.575980,-67.356449,994.064645,-0.097222,199.884608,-0.063991
35.000000,-2.575981,-67.354652,994.131767,-0.096940,199.884606,-0.070254
36.000000,-2.575982,-67.352854,994.205153,-0.096659,199.884604,-0.076517
37.000000,-2.575983,-67.351057,994.284802,-0.096377,199.884601,-0.082780
38.000000,-2.575984,-67.349260,994.370714,-0.096095,199.884599,-0.089043
39.000000,-2.575985,-67.347463,994.462889,-0.095813,199.884596,-0.095307
40.000000,-2.575985,-67.345666,994.561327,-0.095532,199.884593,-0.101570
41.000000,-2.575986,-67.343869,994.666028,-0.095250,199.884590,-0.107833
42.000000,-2.575987,-67.342072,994.776993,-0.094968,199.884587,-0.114096
43.000000,-2.575988,-67.340275,994.894221,-0.094686,199.884583,-0.120359
44.000000,-2.575989,-67.338477,995.017711,-0.094404,199.884579,-0.126622
45.000000,-2.575990,-67.336680,995.147466,-0.094123,199.884575,-0.132886
46.000000,-2.575991,-67.334883,995.283483,-0.093841,199.884571,-0.139149
47.000000,-2.575991,-67.333086,995.425763,-0.093559,199.884567,-0.145412
48.000000,-2.575992,-67.331289,995.574307,-0.093277,199.884562,-0.151675
49.000000,-2.575993,-67.329492,995.729114,-0.092996,199.884558,-0.157938
50.000000,-2.575994,-67.327695,995.890183,-0.092714,199.884553,-0.164202
51.000000,-2.575995,-67.325898,996.057517,-0.092432,199.884548,-0.170465
52.000000,-2.575996,-67.324101,996.231113,-0.092150,199.884542,-0.176728
53.000000,-2.575996,-67.322303,996.410972,-0.091868,199.884537,-0.182991
54.000000,-2.575997,-67.320506,996.597095,-0.091587,199.884531,-0.189254
55.000000,-2.575998,-67.318709,996.789481,-0.091305,199.884525,-0.195517
56.000000,-2.575999,-67.316912,996.988129,-0.091023,199.884519,-0.201780
57.000000,-2.576000,-67.315115,997.193042,-0.090741,199.884513,-0.208044
58.000000,-2.576001,-67.313318,997.404217,-0.090459,199.884506,-0.214307
59.000000,-2.576001,-67.311521,997.621655,-0.090178,199.884500,-0.220570
60.000000,-2.576002,-67.309724,997.845357,-0.089896,199.884493,-0.226833
61.000000,-2.576003,-67.307926,998.075321,-0.089614,199.884486,-0.233096
62.000000,-2.576004,-67.306129,998.311549,-0.089332,199.884478,-0.239359
63.000000,-2.576005,-67.304332,998.554040,-0.089051,199.884471,-0.245623
64.000000,-2.576005,-67.302535,998.802795,-0.088769,199.884463,-0.251886
65.000000,-2.576006,-67.300738,999.057812,-0.088487,199.884455,-0.258149
66.000000,-2.576007,-67.298941,999.319092,-0.088205,199.884447,-0.264412
67.000000,-2.576008,-67.297144,999.586636,-0.087923,199.884439,-0.270675
68.000000,-2.576009,-67.295347,999.860443,-0.087642,199.884431,-0.276938
69.000000,-2.576009,-67.293550,1000.140513,-0.087360,199.884422,-0.283202
70.000000,-2.576010,-67.291752,1000.426846,-0.087078,199.884413,-0.289465
71.000000,-2.576011,-67.289955,1000.719442,-0.086796,199.884404,-0.295728
72.000000,-2.576012,-67.288158,1001.018302,-0.086515,199.884395,-0.301991
73.000000,-2.576013,-67.286361,1001.323424,-0.086233,199.884385,-0.308254
74.000000,-2.576013,-67.284564,1001.634810,-0.085951,199.884376,-0.314517
75.000000,-2.576014,-67.282767,1001.952459,-0.085669,199.884366,-0.320780
76.000000,-2.576015,-67.280970,1002.276371,-0.085387,199.884356,-0.327044
77.000000,-2.576016,-67.279173,1002.606546,-0.085106,199.884346,-0.333307
78.000000,-2.576016,-67.277376,1002.942985,-0.084824,199.884335,-0.339570
79.000000,-2.576017,-67.275578,1003.285686,-0.084542,199.884325,-0.345833
80.000000,-2.576018,-67.273781,1003.634651,-0.084260,199.884314,-0.352096
81.000000,-2.576019,-67.271984,1003.989879,-0.083978,199.884303,-0.358359
82.000000,-2.576019,-67.270187,1004.351369,-0.083697,199.884292,-0.364622
83.000000,-2.576020,-67.268390,1004.719124,-0.083415,199.884280,-0.370886
84.000000,-2.576021,-67.266593,1005.093141,-0.083133,199.884269,-0.377149
85.000000,-2.576022,-67.264796,1005.473421,-0.082851,199.884257,-0.383412
86.000000,-2.576022,-67.262999,1005.859965,-0.082570,199.884245,-0.389675
87.000000,-2.576023,-67.261202,1006.252771,-0.082288,199.884233,-0.395938
88.000000,-2.576024,-67.259404,1006.651841,-0.082006,199.884220,-0.402201
89.000000,-2.576025,-67.257607,1007.057174,-0.081724,199.884208,-0.408464
90.000000,-2.576025,-67.255810,1007.468770,-0.081442,199.884195,-0.414728
91.000000,-2.576026,-67.254013,1007.886629,-0.081161,199.884182,-0.420991
92.000000,-2.576027,-67.252216,1008.310751,-0.080879,199.884169,-0.427254
93.000000,-2.576028,-67.250419,1008.741137,-0.080597,199.884155,-0.433517
94.000000,-2.576028,-67.248622,1009.177785,-0.080315,199.884142,-0.439780
95.000000,-2.576029,-67.246825,1009.620697,-0.080033,199.884128,-0.446043
96.000000,-2.576030,-67.245028,1010.069872,-0.079752,199.884114,-0.452306
97.000000,-2.576031,-67.243230,1010.525310,-0.079470,199.884100,-0.458569
98.000000,-2.576031,-67.241433,1010.987011,-0.079188,199.884086,-0.464833
99.000000,-2.576032,-67.239636,1011.454975,-0.078906,199.884071,-0.471096
100.000000,-2.576033,-67.237839,1011.929202,-0.078625,199.884056,-0.477359
101.000000,-2.576033,-67.236042,1012.409693,-0.078343,199.884041,-0.483622
102.000000,-2.576034,-67.234245,1012.896446,-0.078061,199.884026,-0.489885
103.000000,-2.576035,-67.232448,1013.389463,-0.077779,199.884011,-0.496148
104.000000,-2.576036,-67.230651,1013.888743,-0.077497,199.883995,-0.502411
105.000000,-2.576036,-67.228854,1014.394285,-0.077216,199.883980,-0.508674
106.000000,-2.576037,-67.227056,1014.906091,-0.076934,199.883964,-0.514938
107.000000,-2.576038,-67.225259,1015.424160,-0.076652,199.883948,-0.521201
108.000000,-2.576038,-67.223462,1015.948493,-0.076370,199.883931,-0.527464
109.000000,-2.576039,-67.221665,1016.479088,-0.076088,199.883915,-0.533727
110.000000,-2.576040,-67.219868,1017.015946,-0.075807,199.883898,-0.539990
111.000000,-2.576040,-67.218071,1017.559068,-0.075525,199.883881,-0.546253
112.000000,-2.576041,-67.216274,1018.108453,-0.075243,199.883864,-0.552516
113.000000,-2.576042,-67.214477,1018.664100,-0.074961,199.883847,-0.558779
114.000000,-2.576042,-67.212680,1019.226011,-0.074679,199.883829,-0.565042
115.000000,-2.576043,-67.210883,1019.794185,-0.074398,199.883811,-0.571305
116.000000,-2.576044,-67.209085,1020.368622,-0.074116,199.883794,-0.577569
117.000000,-2.576044,-67.207288,1020.949322,-0.073834,199.883775,-0.583832
118.000000,-2.576045,-67.205491,1021.536285,-0.073552,199.883757,-0.590095
119.000000,-2.576046,-67.203694,1022.129512,-0.073271,199.883739,-0.596358
120.000000,-2.576046,-67.201897,1022.729001,-0.072989,199.883720,-0.602621
121.000000,-2.576047,-67.200100,1023.334754,-0.072707,199.883701,-0.608884
122.000000,-2.576048,-67.198303,1023.946769,-0.072425,199.883682,-0.615147
123.000000,-2.576048,-67.196506,1024.565048,-0.072143,199.883663,-0.621410
124.000000,-2.576049,-67.194709,1025.189590,-0.071862,199.883643,-0.627673
125.000000,-2.576050,-67.192911,1025.820394,-0.071580,199.883624,-0.633936
126.000000,-2.576050,-67.191114,1026.457462,-0.071298,199.883604,-0.640199
127.000000,-2.576051,-67.189317,1027.100793,-0.071016,199.883584,-0.646463
128.000000,-2.576052,-67.187520,1027.750387,-0.070734,199.883563,-0.652726
129.000000,-2.576052,-67.185723,1028.406244,-0.070453,199.883543,-0.658989
130.000000,-2.576053,-67.183926,1029.068365,-0.070171,199.883522,-0.665252
131.000000,-2.576053,-67.182129,1029.736748,-0.069889,199.883502,-0.671515
132.000000,-2.576054,-67.180332,1030.411394,-0.069607,199.883480,-0.677778
133.000000,-2.576055,-67.178535,1031.092304,-0.069326,199.883459,-0.684041
134.000000,-2.576055,-67.176738,1031.779476,-0.069044,199.883438,-0.690304
135.000000,-2.576056,-67.174940,1032.472911,-0.068762,199.883416,-0.696567
136.000000,-2.576057,-67.173143,1033.172610,-0.068480,199.883394,-0.702830
137.000000,-2.576057,-67.171346,1033.878572,-0.068198,199.883372,-0.709093
138.000000,-2.576058,-67.169549,1034.590796,-0.067917,199.883350,-0.715356
139.000000,-2.576058,-67.167752,1035.309284,-0.067635,199.883328,-0.721619
140.000000,-2.576059,-67.165955,1036.034035,-0.067353,199.883305,-0.727882
141.000000,-2.576060,-67.164158,1036.765049,-0.067071,199.883282,-0.734145
142.000000,-2.576060,-67.162361,1037.502326,-0.066789,199.883259,-0.740408
143.000000,-2.576061,-67.160564,1038.245866,-0.066508,199.883236,-0.746671
144.000000,-2.576061,-67.158767,1038.995668,-0.066226,199.883213,-0.752934
145.000000,-2.576062,-67.156970,1039.751734,-0.065944,199.883189,-0.759198
146.000000,-2.576063,-67.155172,1040.514064,-0.065662,199.883165,-0.765461
147.000000,-2.576063,-67.153375,1041.282656,-0.065380,199.883141,-0.771724
148.000000,-2.576064,-67.151578,1042.057511,-0.065099,199.883117,-0.777987
149.000000,-2.576064,-67.149781,1042.838629,-0.064817,199.883093,-0.784250
150.000000,-2.576065,-67.147984,1043.626010,-0.064535,199.883068,-0.790513
151.000000,-2.576066,-67.146187,1044.419654,-0.064253,199.883043,-0.796776
152.000000,-2.576066,-67.144390,1045.219561,-0.063972,199.883018,-0.803039
153.000000,-2.576067,-67.142593,1046.025732,-0.063690,199.882993,-0.809302
154.000000,-2.576067,-67.140796,1046.838165,-0.063408,199.882968,-0.815565
155.000000,-2.576068,-67.138999,1047.656861,-0.063126,199.882942,-0.821828
156.000000,-2.576068,-67.137202,1048.481821,-0.062844,199.882917,-0.828091
157.000000,-2.576069,-67.135404,1049.313043,-0.062563,199.882891,-0.834354
158.000000,-2.576070,-67.133607,1050.150528,-0.062281,199.882864,-0.840617
159.000000,-2.576070,-67.131810,1050.994276,-0.061999,199.882838,-0.846880
160.000000,-2.576071,-67.130013,1051.844288,-0.061717,199.882812,-0.853143
161.000000,-2.576071,-67.128216,1052.700562,-0.061435,199.882785,-0.859406
162.000000,-2.576072,-67.126419,1053.563099,-0.061154,199.882758,-0.865669
163.000000,-2.576072,-67.124622,1054.431900,-0.060872,199.882731,-0.871932
164.000000,-2.576073,-67.122825,1055.306963,-0.060590,199.882703,-0.878195
165.000000,-2.576074,-67.121028,1056.188289,-0.060308,199.882676,-0.884458
166.000000,-2.576074,-67.119231,1057.075879,-0.060026,199.882648,-0.890721
167.000000,-2.576075,-67.117434,1057.969731,-0.059745,199.882620,-0.896984
168.000000,-2.576075,-67.115637,1058.869846,-0.059463,199.882592,-0.903247
169.000000,-2.576076,-67.113839,1059.776225,-0.059181,199.882564,-0.909510
170.000000,-2.576076,-67.112042,1060.688866,-0.058899,199.882535,-0.915773
171.000000,-2.576077,-67.110245,1061.607770,-0.058618,199.882507,-0.922036
172.000000,-2.576077,-67.108448,1062.532937,-0.058336,199.882478,-0.928299
173.000000,-2.576078,-67.106651,1063.464367,-0.058054,199.882449,-0.934562
174.000000,-2.576078,-67.104854,1064.402060,-0.057772,199.882419,-0.940825
175.000000,-2.576079,-67.103057,1065.346016,-0.057490,199.882390,-0.947088
176.000000,-2.576079,-67.101260,1066.296236,-0.057209,199.882360,-0.953351
177.000000,-2.576080,-67.099463,1067.252718,-0.056927,199.882330,-0.959613
178.000000,-2.576080,-67.097666,1068.215462,-0.056645,199.882300,-0.965876
179.000000,-2.576081,-67.095869,1069.184470,-0.056363,199.882270,-0.972139
180.000000,-2.576081,-67.094072,1070.159741,-0.056081,199.882239,-0.978402
